Time(s)	Ch2(C)	Ch3(C)	Ch4(C)	Ch6(C)	Ch7(C)	Ch8(C)
0.000	-52.21	22.37	-47.63	24.58	26.45	-40.98	
5.238	-51.54	22.39	-48.05	24.54	26.42	-42.92	
10.474	-51.02	22.39	-48.32	24.52	26.39	-44.34	
15.711	-50.62	22.39	-48.48	24.52	26.36	-45.38	
20.949	-50.29	22.41	-48.59	24.50	26.35	-46.14	
26.186	-50.03	22.41	-48.64	24.54	26.34	-46.65	
31.423	-49.81	22.41	-48.69	24.49	26.31	-47.09	
36.660	-49.63	22.39	-48.71	24.49	26.31	-47.41	
41.898	-49.46	22.40	-48.71	24.53	26.31	-47.63	
47.135	-49.33	22.41	-48.69	24.57	26.31	-47.80	
52.372	-49.21	22.41	-48.68	24.61	26.31	-47.89	
57.609	-49.12	22.41	-48.66	24.64	26.31	-48.01	
62.847	-49.03	22.42	-48.64	24.67	26.31	-48.08	
68.084	-48.96	22.42	-48.62	24.70	26.30	-48.13	
73.321	-48.89	22.42	-48.59	24.72	26.29	-48.16	
78.558	-48.99	22.05	-48.78	24.40	25.99	-48.38	
83.796	-49.10	21.62	-48.89	23.54	25.65	-48.47	
89.033	-49.10	21.61	-48.85	22.94	25.49	-48.45	
94.270	-49.07	21.59	-48.79	22.60	25.37	-48.46	
99.507	-49.02	21.58	-48.75	22.47	25.28	-48.43	
104.745	-48.96	21.53	-48.71	22.42	25.26	-48.44	
109.982	-48.89	21.56	-48.67	22.38	25.25	-48.43	
115.219	-48.83	21.63	-48.62	22.34	25.24	-48.41	
120.456	-48.76	21.65	-48.58	22.31	25.24	-48.40	
125.694	-48.69	21.66	-48.54	22.32	25.25	-48.38	
130.931	-48.64	21.67	-48.50	22.32	25.26	-48.37	
136.168	-48.59	21.67	-48.47	22.36	25.28	-48.36	
141.406	-48.55	21.68	-48.44	22.41	25.29	-48.34	
146.643	-48.51	21.69	-48.41	22.46	25.32	-48.33	
151.881	-48.46	21.69	-48.39	22.53	25.34	-48.26	
157.117	-48.43	21.69	-48.36	22.61	25.36	-48.25	
162.355	-48.43	21.70	-48.37	22.76	25.39	-48.29	
167.592	-48.41	21.70	-48.36	22.92	25.42	-48.29	
172.830	-48.39	21.71	-48.34	23.09	25.46	-48.28	
178.066	-48.38	21.71	-48.33	23.27	25.52	-48.28	
183.304	-48.36	21.71	-48.33	23.44	25.57	-48.28	
188.541	-48.35	21.71	-48.32	23.61	25.64	-48.28	
193.779	-48.34	21.71	-48.31	23.78	25.72	-48.27	
199.015	-48.33	21.72	-48.31	23.94	25.81	-48.26	
204.253	-48.33	21.72	-48.30	24.09	25.89	-48.26	
209.491	-48.32	21.72	-48.30	24.24	25.97	-48.26	
214.728	-48.31	21.72	-48.29	24.38	26.07	-48.26	
219.965	-48.31	21.72	-48.29	24.53	26.16	-48.26	
225.202	-48.30	21.72	-48.29	24.66	26.26	-48.25	
230.440	-48.29	21.73	-48.29	24.78	26.36	-48.25	
235.677	-48.29	21.73	-48.28	24.91	26.45	-48.25	
240.914	-48.29	21.74	-48.28	25.03	26.55	-48.25	
246.151	-48.28	21.74	-48.28	25.16	26.65	-48.24	
251.389	-48.28	21.74	-48.28	25.28	26.75	-48.24	
256.626	-48.28	21.72	-48.28	25.39	26.85	-48.24	
261.863	-48.28	21.74	-48.28	25.50	26.95	-48.24	
267.100	-48.28	21.76	-48.28	25.61	27.05	-48.24	
272.338	-48.27	21.76	-48.27	25.72	27.15	-48.24	
277.576	-48.27	21.76	-48.27	25.82	27.25	-48.24	
282.812	-48.27	21.76	-48.27	25.92	27.35	-48.24	
288.050	-48.27	21.77	-48.27	26.02	27.45	-48.24	
293.287	-48.26	21.77	-48.27	26.11	27.55	-48.24	
298.525	-48.26	21.78	-48.27	26.21	27.65	-48.24	
303.761	-48.26	21.78	-48.27	26.30	27.75	-48.24	
308.999	-48.26	21.78	-48.27	26.39	27.84	-48.24	
314.236	-48.26	21.79	-48.27	26.48	27.94	-48.24	
319.474	-48.26	21.77	-48.26	26.57	28.04	-48.24	
324.710	-48.26	21.79	-48.26	26.66	28.14	-48.24	
329.948	-48.26	21.37	-48.26	26.74	28.24	-48.25	
335.185	-48.26	21.76	-48.26	26.82	28.34	-48.25	
340.423	-48.26	21.81	-48.26	26.91	28.44	-48.25	
345.659	-48.26	21.81	-48.26	26.99	28.53	-48.25	
350.897	-48.26	21.81	-48.26	27.06	28.63	-48.24	
356.135	-48.25	21.82	-48.26	27.14	28.72	-48.24	
361.372	-48.25	21.82	-48.26	27.22	28.82	-48.24	
366.609	-48.25	21.82	-48.25	27.30	28.92	-48.18	
371.846	-48.24	21.83	-48.26	27.37	29.01	-48.23	
377.084	-48.24	21.84	-48.26	27.45	29.11	-48.24	
382.321	-48.25	21.84	-48.26	27.53	29.20	-48.25	
387.558	-48.25	21.84	-48.26	27.59	29.30	-48.25	
392.795	-48.25	21.85	-48.26	27.67	29.39	-48.25	
398.033	-48.25	21.86	-48.26	27.74	29.49	-48.26	
403.270	-48.25	21.86	-48.26	27.81	29.58	-48.26	
408.507	-48.25	21.87	-48.26	27.89	29.67	-48.26	
413.744	-48.24	21.87	-48.26	27.96	29.77	-48.24	
418.982	-48.25	21.87	-48.26	28.02	29.86	-48.25	
424.219	-48.25	21.88	-48.26	28.09	29.95	-48.26	
429.456	-48.25	21.89	-48.26	28.15	30.04	-48.26	
434.694	-48.25	21.89	-48.26	28.23	30.14	-48.26	
439.931	-48.24	21.90	-48.26	28.29	30.23	-48.25	
445.169	-48.25	21.91	-48.26	28.36	30.32	-48.26	
450.405	-48.25	21.91	-48.26	28.42	30.41	-48.26	
455.643	-48.25	21.91	-48.26	28.49	30.50	-48.26	
460.880	-48.25	21.92	-48.26	28.56	30.59	-48.26	
466.118	-48.25	21.92	-48.26	28.62	30.68	-48.26	
471.354	-48.25	21.51	-48.26	28.69	30.77	-48.26	
476.592	-48.25	21.94	-48.26	28.75	30.86	-48.26	
481.829	-48.25	21.87	-48.26	28.81	30.95	-48.26	
487.067	-48.25	21.95	-48.26	28.88	31.04	-48.26	
492.303	-48.25	21.96	-48.26	28.94	31.13	-48.26	
497.541	-48.25	21.96	-48.26	29.00	31.22	-48.26	
502.779	-48.25	21.89	-48.26	29.06	31.31	-48.26	
508.015	-48.25	21.97	-48.26	29.12	31.39	-48.26	
513.253	-48.25	21.98	-48.26	29.19	31.48	-48.27	
518.490	-48.25	21.99	-48.26	29.25	31.57	-48.27	
523.728	-48.25	22.00	-48.26	29.31	31.65	-48.26	
528.964	-48.25	22.01	-48.26	29.37	31.74	-48.26	
534.202	-48.24	21.96	-48.26	29.43	31.82	-48.26	
539.439	-48.24	21.99	-48.26	29.49	31.91	-48.26	
544.677	-48.24	22.01	-48.26	29.55	32.00	-48.26	
549.913	-48.24	20.91	-48.26	29.60	32.08	-48.26	
555.151	-48.24	22.03	-48.26	29.67	32.17	-48.26	
560.388	-48.24	21.50	-48.26	29.72	32.26	-48.26	
565.626	-48.25	21.94	-48.26	29.78	32.34	-48.27	
570.862	-48.24	19.82	-48.26	29.84	32.42	-48.26	
576.100	-48.24	22.06	-48.26	29.90	32.51	-48.26	
581.338	-48.24	22.07	-48.26	29.96	32.59	-48.26	
586.575	-48.24	22.07	-48.26	30.02	32.67	-48.26	
591.812	-48.24	22.07	-48.26	30.08	32.76	-48.26	
597.049	-48.24	22.09	-48.26	30.14	32.84	-48.26	
602.287	-48.24	22.10	-48.26	30.19	32.92	-48.26	
607.524	-48.24	22.11	-48.26	30.25	33.01	-48.26	
612.761	-48.24	22.11	-48.26	30.31	33.09	-48.26	
617.998	-48.24	22.12	-48.26	30.36	33.17	-48.26	
623.236	-48.24	22.12	-48.26	30.42	33.26	-48.26	
628.473	-48.24	22.13	-48.26	30.48	33.34	-48.26	
633.710	-48.24	22.14	-48.26	30.54	33.42	-48.26	
638.947	-48.24	22.14	-48.26	30.59	33.50	-48.26	
644.185	-48.24	22.15	-48.26	30.64	33.59	-48.26	
649.423	-48.24	22.16	-48.26	30.70	33.66	-48.26	
654.659	-48.24	22.16	-48.26	30.76	33.75	-48.26	
659.897	-48.24	22.17	-48.26	30.81	33.82	-48.26	
665.134	-48.24	22.18	-48.26	30.86	33.91	-48.26	
670.372	-48.24	22.18	-48.26	30.92	33.99	-48.26	
675.608	-48.24	22.17	-48.26	30.97	34.07	-48.26	
680.846	-48.24	22.20	-48.26	31.03	34.15	-48.26	
686.083	-48.24	22.21	-48.26	31.08	34.22	-48.26	
691.321	-48.24	21.44	-48.26	31.14	34.31	-48.26	
696.557	-48.24	22.22	-48.26	31.19	34.39	-48.26	
701.795	-48.24	22.21	-48.26	31.24	34.46	-48.26	
707.032	-48.27	22.14	-48.28	31.30	34.54	-48.35	
712.270	-48.26	22.21	-48.28	31.35	34.62	-48.32	
717.506	-48.25	22.25	-48.27	31.41	34.69	-48.29	
722.744	-48.24	22.26	-48.26	31.46	34.78	-48.28	
727.982	-48.24	22.27	-48.26	31.51	34.85	-48.27	
733.219	-48.24	22.25	-48.26	31.56	34.93	-48.27	
738.456	-48.24	22.28	-48.26	31.61	35.01	-48.26	
743.693	-48.24	22.29	-48.26	31.67	35.08	-48.26	
748.931	-48.24	22.04	-48.26	31.72	35.16	-48.26	
754.168	-48.24	22.09	-48.26	31.78	35.23	-48.26	
759.405	-48.24	22.31	-48.26	31.82	35.31	-48.26	
764.642	-48.24	21.76	-48.26	31.87	35.38	-48.26	
769.880	-48.24	20.55	-48.26	31.93	35.46	-48.28	
775.117	-48.24	22.31	-48.26	31.98	35.53	-48.26	
780.354	-48.24	22.31	-48.26	32.03	35.61	-48.26	
785.592	-48.24	22.34	-48.26	32.09	35.68	-48.26	
790.829	-48.24	22.35	-48.26	32.14	35.76	-48.26	
796.067	-48.24	21.15	-48.26	32.19	35.82	-48.27	
801.303	-48.24	20.55	-48.26	32.24	35.90	-48.26	
806.541	-48.24	22.22	-48.26	32.29	35.97	-48.26	
811.778	-48.24	22.11	-48.26	32.33	36.05	-48.25	
817.016	-48.24	20.49	-48.26	32.39	36.12	-48.26	
822.252	-48.24	20.42	-48.26	32.44	36.19	-48.26	
827.490	-48.24	22.09	-48.26	32.49	36.26	-48.26	
832.727	-48.24	22.32	-48.26	32.54	36.34	-48.26	
837.965	-48.24	22.17	-48.26	32.59	36.41	-48.26	
843.201	-48.24	22.42	-48.26	32.63	36.47	-48.26	
848.439	-48.24	22.39	-48.26	32.69	36.55	-48.26	
853.677	-48.24	22.42	-48.26	32.74	36.62	-48.26	
858.914	-48.24	20.92	-48.26	32.79	36.69	-48.26	
864.151	-48.24	22.45	-48.26	32.84	36.76	-48.26	
869.388	-48.24	22.42	-48.26	32.89	36.83	-48.26	
874.626	-48.24	20.05	-48.26	32.94	36.90	-48.26	
879.863	-48.24	19.96	-48.26	32.99	36.97	-48.26	
885.100	-48.24	19.89	-48.26	33.03	37.04	-48.26	
890.337	-48.24	18.51	-48.26	33.08	37.11	-48.26	
895.575	-48.24	14.51	-48.26	33.13	37.18	-48.26	
900.812	-48.24	22.24	-48.26	33.18	37.25	-48.26	
906.049	-48.24	22.12	-48.26	33.22	37.32	-48.26	
911.286	-48.24	15.30	-48.26	33.28	37.39	-48.26	
916.524	-48.24	22.36	-48.26	33.32	37.46	-48.27	
921.762	-48.24	16.29	-48.26	33.36	37.53	-48.27	
926.998	-48.24	16.96	-48.26	33.41	37.59	-48.27	
932.236	-48.24	19.45	-48.26	33.46	37.66	-48.26	
937.473	-48.24	19.35	-48.26	33.51	37.72	-48.26	
942.711	-48.24	21.97	-48.26	33.55	37.79	-48.26	
947.947	-48.24	17.96	-48.26	33.61	37.86	-48.26	
953.185	-48.24	20.11	-48.26	33.65	37.93	-48.26	
958.422	-48.24	15.62	-48.26	33.70	37.99	-48.26	
963.660	-48.24	20.27	-48.26	33.74	38.06	-48.26	
968.896	-48.24	14.14	-48.26	33.79	38.13	-48.26	
974.134	-48.24	0.39	-48.26	33.84	38.19	-48.26	
979.371	-48.24	10.67	-48.26	33.88	38.26	-48.26	
984.609	-48.24	4.96	-48.26	33.93	38.32	-48.26	
989.845	-48.24	11.69	-48.26	33.97	38.39	-48.26	
995.083	-48.24	4.92	-48.26	34.03	38.46	-48.26	
1000.321	-48.24	4.50	-48.26	34.07	38.53	-48.26	
1005.558	-48.24	4.88	-48.26	34.11	38.59	-48.26	
1010.795	-48.24	1.17	-48.26	34.16	38.66	-48.26	
1016.032	-48.24	5.55	-48.26	34.19	38.72	-48.26	
1021.270	-48.24	5.72	-48.26	34.24	38.78	-48.26	
1026.507	-48.24	8.26	-48.26	34.29	38.84	-48.27	
1031.744	-48.24	22.19	-48.26	34.34	38.91	-48.27	
1036.981	-48.24	22.68	-48.26	34.38	38.97	-48.26	
1042.219	-48.24	22.59	-48.26	34.43	39.04	-48.28	
1047.457	-48.24	19.54	-48.26	34.47	39.10	-48.28	
1052.693	-48.24	21.69	-48.25	34.52	39.17	-48.27	
1057.931	-48.22	22.74	-48.25	34.57	39.23	-48.23	
1063.168	-48.23	22.69	-48.26	34.61	39.29	-48.25	
1068.406	-48.23	22.66	-48.26	34.62	39.34	-48.26	
1073.642	-48.23	22.73	-48.26	34.59	39.39	-48.26	
1078.880	-48.24	22.74	-48.26	34.56	39.43	-48.26	
1084.118	-48.23	21.02	-48.25	34.51	39.46	-48.25	
1089.355	-48.23	20.47	-48.26	34.46	39.49	-48.26	
1094.592	-48.24	22.76	-48.26	34.42	39.50	-48.27	
1099.829	-48.24	22.78	-48.26	34.38	39.51	-48.27	
1105.067	-48.24	20.93	-48.26	34.32	39.50	-48.27	
1110.305	-48.24	22.78	-48.26	34.28	39.49	-48.26	
1115.541	-48.24	22.29	-48.26	34.23	39.49	-48.27	
1120.779	-48.24	22.26	-48.26	34.19	39.47	-48.27	
1126.016	-48.24	22.76	-48.26	34.17	39.45	-48.27	
1131.254	-48.24	22.54	-48.26	34.21	39.43	-48.27	
1136.490	-48.11	22.42	-48.11	35.14	39.51	-48.16	
1141.728	-47.86	23.79	-47.98	36.66	39.70	-48.04	
1146.966	-47.89	23.87	-47.97	37.38	39.84	-48.01	
1152.203	-47.91	23.81	-48.01	37.64	39.68	-48.03	
1157.440	-47.94	23.72	-48.03	37.42	39.47	-48.04	
1162.677	-47.98	23.66	-48.07	37.04	39.29	-48.04	
1167.915	-48.04	23.53	-48.13	36.32	39.07	-48.15	
1173.153	-48.09	23.50	-48.16	36.05	38.94	-48.16	
1178.389	-48.16	23.43	-48.21	35.42	38.84	-48.21	
1183.627	-48.19	23.39	-48.24	35.01	38.61	-48.24	
1188.864	-48.26	23.29	-48.27	34.58	38.39	-48.34	
1194.102	-48.28	23.21	-48.29	33.98	38.26	-48.33	
1199.338	-48.29	23.21	-48.30	33.71	38.11	-48.33	
1204.576	-48.31	23.19	-48.31	33.38	37.99	-48.34	
1209.814	-48.31	23.18	-48.32	33.24	37.78	-48.34	
1215.051	-48.33	23.16	-48.33	33.16	37.72	-48.35	
1220.288	-48.33	23.14	-48.34	33.03	37.61	-48.35	
1225.525	-48.34	23.12	-48.34	32.76	37.53	-48.36	
1230.763	-48.34	23.08	-48.34	32.43	37.38	-48.36	
1236.001	-48.35	23.05	-48.34	32.16	37.29	-48.36	
1241.237	-48.35	23.01	-48.34	31.97	37.12	-48.37	
1246.475	-48.35	22.97	-48.34	31.74	37.09	-48.38	
1251.712	-48.34	22.97	-48.34	31.65	37.01	-48.37	
1256.950	-48.34	22.97	-48.33	31.69	36.90	-48.36	
1262.186	-48.34	22.97	-48.33	31.80	36.93	-48.36	
1267.424	-48.33	22.96	-48.33	31.91	36.88	-48.36	
1272.662	-48.33	22.93	-48.33	31.98	36.89	-48.35	
1277.899	-48.33	22.93	-48.33	32.10	36.91	-48.34	
1283.136	-48.32	22.94	-48.32	32.10	36.80	-48.34	
1288.373	-48.31	22.94	-48.31	32.12	36.76	-48.34	
1293.611	-48.32	22.89	-48.32	31.67	36.59	-48.34	
